17
18
35
65
91
95
89
76
63
54
50
49
47
43
37
31
25
21
24
41
68
90
95
89
76
64
56
53
51
49
45
40
34
29
26
33
54
80
95
94
85
72
61
55
53
52
49
44
38
32
27
25
33
55
81
95
94
86
75
66
60
57
55
52
47
42
36
30
25
26
39
62
84
95
92
90
81
69
60
55
54
52
48
43
36
30
25
22
26
45
70
90
94
87
74
62
58
56
54
53
52
49
46
43
40
38
45
65
92
95
94
87
77
66
60
59
55
52
49
45
40
35
30
26
27
39
61
81
91
90
80
69
59
54
51
49
45
40
35
30
25
22
25
41
65
85
92
87
76
63
54
49
46
44
40
35
28
22
16
13
16
33
60
83
92
87
74
61
51
47
45
43
39
33
26
20
16
15
28
55
82
95
91
77
73
62
50
45
44
42
37
31
24
18
14
20
42
72
94
94
87
73
60
50
45
43
39
34
27
19
11
5
9
29
60
84
93
87
73
58
47
40
34
26
16
6
5
5
5
14
36
61
77
81
74
64
54
49
47
46
44
41
37
34
32
38
55
77
93
94
88
77
67
59
55
52
49
45
39
34
30
30
32
42
64
85
95
92
83
71
61
55
52
49
46
41
35
30
25
24
35
58
80
92
91
81
68
58
51
48
45
42
38
32
31
26
21
19
18
25
46
71
87
89
80
67
54
46
43
42
39
34
28
22
17
12
16
33
59
80
86
80
67
54
45
41
40
38
34
28
22
15
10
13
30
57
79
87
84
81
69
55
46
43
43
42
37
30
22
15
12
19
41
68
87
91
83
68
55
46
43
41
39
35
28
20
14
19
40
69
89
92
81
64
51
44
43
42
38
32
24
16
14
25
51
79
94
93
83
69
57
49
45
42
37
31
22
16
19
38
64
83
87
79
66
52
42
36
32
27
20
11
5
5
5
16
36
54
61
58
48
37
29
26
25
23
20
15
9
5
5
11
28
47
59
59
52
42
34
29
27
26
23
18
13
7
5
5
5
14
33
52
63
64
58
50
42
38
37
36
35
33
29
23
18
13
9
6
5
8
23
45
64
71
69
62
53
46
43
42
42
41
37
32
26
20
14
10
7
5
5
7
22
46
68
78
78
70
61
54
51
50
48
45
39
33
26
20
16
11
8
5
6
20
45
72
87
88
79
68
58
54
52
52
51
47
42
34
27
20
15
11
7
6
15
40
70
90
95
89
80
70
64
59
56
52
48
43
37
30
25
29
52
85
95
95
94
92
83
73
66
61
57
54
50
45
40
35
31
32
46
69
90
95
91
82
72
63
58
55
52
48
42
36
30
24
21
25
44
70
90
95
88
76
63
54
50
48
46
41
35
28
21
15
11
14
30
58
82
92
86
72
57
46
40
38
35
30
28
22
14
7
5
5
8
25
52
74
84
79
67
55
47
44
43
41
36
28
19
11
5
5
12
32
57
73
75
65
50
38
32
30
29
26
20
12
5
5
5
5
16
39
63
76
77
68
58
50
47
46
46
44
41
39
38
35
32
30
36
55
80
95
95
90
82
73
68
66
64
62
58
53
48
43
39
37
41
55
76
92
95
90
81
76
72
66
63
62
61
60
57
53
48
43
39
36
38
50
69
87
95
91
82
72
64
61
59
57
54
49
43
38
34
30
28
35
53
77
94
94
89
80
70
64
60
59
58
56
52
47
45
41
36
32
28
26
29
43
66
87
95
92
83
72
64
59
57
54
51
45
39
33
28
24
21
19
18
27
49
75
92
94
87
75
64
57
54
52
48
43
36
29
23
18
14
10
7
9
23
49
77
92
92
82
70
59
53
52
51
49
45
40
33
26
21
17
13
11
16
19
35
65
90
95
90
79
66
58
54
53
51
47
42
35
29
24
20
17
16
26
51
80
95
94
88
77
68
61
58
56
53
49
44
38
32
28
24
22
23
37
61
85
95
94
90
83
76
72
69
68
66
63
59
54
49
44
41
40
47
64
85
95
94
87
77
69
63
62
61
60
58
54
48
41
35
30
28
33
48
69
84
88
82
74
71
60
52
46
44
43
41
37
32
26
20
15
13
20
40
65
82
86
77
63
52
46
47
48
47
42
35
28
24
29
45
67
82
86
80
69
59
53
49
46
43
37
31
25
21
25
42
65
82
88
83
74
65
57
53
50
46
42
37
32
27
27
38
58
76
84
82
74
64
55
49
45
42
38
33
27
21
16
18
33
55
72
78
74
65
55
47
42
39
36
31
25
19
13
8
9
22
44
65
75
73
64
53
44
38
35
33
29
23
16
9
5
5
6
17
39
62
75
76
69
59
51
45
42
38
33
27
21
15
10
5
5
11
30
55
74
81
78
69
58
51
46
43
39
32
24
17
10
5
5
5
9
25
49
69
79
77
68
57
49
45
42
40
34
27
20
13
7
5
5
12
33
58
75
79
74
63
52
45
41
38
35
29
22
15
8
5
5
7
22
48
71
81
79
68
56
46
40
38
35
31
26
19
13
8
6
16
40
70
89
93
85
71
57
49
44
41
38
32
24
17
10
5
6
22
53
86
95
94
86
74
64
56
51
48
44
39
32
26
20
15
15
27
54
82
95
93
85
73
62
55
50
47
44
38
32
26
20
15
13
22
45
74
93
94
87
74
63
55
50
47
44
39
33
27
21
16
16
30
56
82
95
92
82
69
59
53
50
48
44
39
32
26
21
18
25
47
76
95
94
89
78
67
60
55
53
50
46
40
34
28
23
20
21
36
61
87
95
93
85
74
64
59
57
55
53
48
47
43
37
31
27
25
31
50
74
91
94
88
77
66
57
53
51
49
45
40
35
29
25
24
20
23
38
63
86
95
91
79
66
56
51
49
47
45
40
35
30
25
22
27
44
70
89
94
87
73
60
53
50
50
49
45
39
32
26
23
31
54
82
95
94
87
75
63
56
52
50
48
44
39
33
28
25
32
52
78
95
95
90
80
70
62
57
54
51
47
42
37
32
29
32
47
68
87
94
91
81
70
61
56
52
50
46
41
35
30
26
27
40
62
83
93
92
82
71
61
55
52
50
47
43
37
31
26
27
41
65
87
95
92
83
72
62
56
53
50
47
42
35
29
24
23
23
33
56
81
95
94
87
77
66
59
54
52
48
44
38
32
25
20
20
33
56
80
93
93
84
72
61
54
50
47
44
38
32
25
19
17
26
48
71
84
85
76
64
54
48
45
43
39
33
27
21
16
21
24
39
63
82
88
83
73
61
52
50
47
43
40
35
29
22
16
14
25
48
73
87
87
79
67
55
48
43
40
36
30
23
15
9
10
25
51
74
85
82
71
58
55
47
40
37
33
28
22
14
7
5
5
15
37
60
73
74
66
54
44
37
34
31
27
21
15
8
5
5
14
35
56
68
68
60
49
39
34
31
29
26
25
21
15
10
6
9
24
47
65
72
68
57
46
38
34
32
29
25
19
13
8
7
8
22
47
72
86
88
79
67
57
50
46
43
39
33
25
18
12
15
33
62
88
95
92
83
71
60
53
49
45
41
35
28
22
19
28
50
75
92
94
86
72
69
60
52
48
45
41
36
29
22
19
28
52
81
95
94
87
75
63
54
49
46
42
36
29
22
17
24
45
73
94
95
89
78
65
55
50
46
42
37
31
25
20
26
45
69
74
86
91
84
70
57
46
40
37
33
28
22
15
13
24
47
70
83
81
70
56
43
35
31
28
25
19
13
6
8
24
50
72
81
75
61
46
35
30
28
26
22
18
12
6
8
26
54
78
89
84
71
56
44
38
36
33
29
21
13
6
8
26
55
80
92
88
74
58
45
38
34
30
24
17
9
5
5
19
45
73
88
88
77
69
61
48
40
36
34
30
25
19
12
12
26
53
79
92
89
75
58
45
38
35
33
28
21
12
5
8
28
61
90
95
91
79
64
57
52
44
40
37
32
25
18
11
12
30
59
85
95
90
77
62
50
43
39
36
30
23
15
7
5
10
31
62
87
95
89
75
60
49
43
40
36
31
24
16
13
9
5
6
22
51
80
94
91
78
63
51
45
43
41
37
31
24
17
13
23
49
80
95
94
85
71
59
51
48
47
44
38
31
25
19
21
39
69
95
95
92
83
71
61
56
53
51
48
43
37
31
25
26
39
63
86
95
92
82
70
59
53
50
49
46
41
36
30
25
27
41
65
86
94
89
77
63
55
51
50
48
44
38
33
28
30
46
73
95
95
92
84
79
74
66
61
59
57
53
49
44
40
40
50
70
89
95
92
83
72
63
57
54
51
47
44
42
35
31
27
29
43
65
84
92
88
78
66
56
52
49
47
44
39
33
27
22
21
28
48
72
88
89
82
70
58
51
47
45
42
37
31
25
18
12
11
20
43
68
84
85
75
61
50
44
43
44
44
42
39
33
25
19
17
29
55
82
95
92
80
67
57
52
50
48
44
38
31
25
19
14
14
27
53
79
91
87
73
57
46
41
39
38
35
29
22
15
9
5
11
33
65
90
94
85
69
54
46
44
44
43
38
32
25
18
14
19
41
72
95
95
88
74
62
54
52
51
50
46
41
35
29
26
32
52
79
95
95
90
79
69
62
58
56
54
51
45
40
35
31
30
39
59
82
95
94
87
76
66
60
57
55
53
49
43
38
32
28
27
33
52
75
92
94
89
78
68
61
57
55
53
49
43
38
32
27
23
22
30
50
75
94
94
90
82
76
75
79
85
89
90
86
81
76
75
78
87
95
95
95
94
89
82
75
68
64
60
57
53
50
47
45
43
41
42
48
58
65
66
61
52
44
38
35
33
32
30
28
25
23
21
19
20
27
39
50
56
56
51
45
40
38
36
35
34
31
28
24
22
19
19
20
26
38
51
58
58
53
47
42
39
37
36
35
32
29
25
23
21
22
29
41
52
58
57
53
46
41
38
37
35
33
30
27
24
22
20
21
28
41
52
57
56
50
43
37
34
32
31
30
27
23
20
17
18
26
38
49
53
50
44
37
33
31
30
29
27
24
21
17
16
22
35
50
60
62
61
59
60
63
64
65
65
59
43
16
5
5
5
5
5
5
5
5
1
1
1
1
1
1
1
1
1
1
1
1
1
1
1
1
1
90
88
86
83
81
79
77
75
73
71
70
70
70
69
68
67
65
64
62
61
60
60
59
58
57
56
56
55
55
55
56
57
57
56
55
54
54
53
53
52
52
51
50
50
50
50
49
49
49
50
52
52
52
52
51
50
49
49
49
49
48
48
48
47
47
47
47
48
50
51
52
52
51
50
50
49
49
49
48
48
47
47
46
46
46
47
49
51
52
52
51
50
49
49
49
49
48
48
47
47
46
46
47
49
51
53
53
53
53
51
50
49
49
49
49
48
48
47
47
46
46
46
49
52
54
54
53
51
49
49
48
48
49
49
48
48
47
47
48
50
53
54
54
53
52
50
50
49
49
49
48
47
46
46
45
47
50
51
53
55
55
54
52
51
50
49
49
48
47
47
46
45
45
45
48
52
55
56
55
53
51
49
49
49
49
48
47
46
45
44
44
44
48
52
55
56
55
52
50
48
47
47
47
46
45
43
42
41
41
41
43
48
52
54
53
50
47
46
46
46
47
46
45
44
42
41
40
42
46
51
54
54
52
49
46
44
44
43
43
42
42
41
40
39
38
39
42
48
53
55
54
51
48
45
44
44
43
42
41
39
38
37
36
36
39
45
51
54
54
51
48
45
44
44
43
43
41
40
38
37
36
37
41
48
54
56
55
51
48
45
45
45
45
44
42
41
39
38
40
46
54
60
62
60
56
52
50
49
49
48
46
45
43
41
39
41
47
52
57
64
67
66
62
57
54
53
52
51
50
49
47
46
44
41
40
41
48
58
66
69
67
62
56
52
51
50
48
46
43
39
36
34
33
37
47
58
67
71
69
64
59
56
55
53
51
49
46
43
39
36
34
37
46
58
67
71
69
63
56
51
47
45
43
41
38
34
31
28
25
24
28
40
55
64
66
62
54
47
42
41
40
39
36
33
29
26
23
22
27
40
55
65
67
62
54
47
43
43
42
42
40
36
32
28
25
25
33
49
65
75
74
67
57
49
44
42
41
38
33
28
23
20
17
22
37
56
68
69
62
50
37
27
20
13
5
5
6
10
11
5
5
6
19
37
50
51
50
43
31
22
18
20
23
20
9
5
5
5
7
8
5
5
5
6
10
11
6
5
5
5
5
5
5
5
5
5
5
5
5
5
5
5
10
17
23
29
39
51
62
66
64
61
59
58
58
57
56
56
55
53
53
54
58
61
64
64
62
59
56
55
54
53
53
52
51
50
49
48
47
47
50
54
58
59
58
55
52
50
49
49
48
47
47
46
45
44
43
42
43
46
52
57
58
59
59
56
53
50
49
49
48
48
47
46
45
43
42
41
41
44
51
56
60
59
56
53
50
48
48
47
46
45
44
42
41
40
39
40
44
51
58
60
58
55
51
48
47
47
47
45
44
42
40
39
38
38
41
48
56
62
63
60
56
52
49
48
48
47
45
44
42
40
38
37
36
38
45
55
63
66
64
59
54
51
49
48
47
46
44
41
39
37
36
34
35
39
49
60
66
66
62
57
52
50
49
48
47
45
43
40
38
36
34
34
37
47
59
68
70
66
60
54
50
48
47
46
44
41
38
35
33
31
30
30
36
49
64
73
74
69
62
56
52
50
49
47
45
41
38
34
32
29
28
28
36
50
66
70
76
77
72
63
56
52
50
49
47
44
41
37
34
31
28
27
29
41
59
75
82
79
70
60
54
52
52
53
56
56
59
58
53
45
35
28
29
42
64
83
92
92
85
75
66
62
61
59
55
50
43
36
30
27
30
44
68
91
95
93
84
73
64
60
59
58
55
51
46
42
41
38
39
51
72
91
95
91
82
70
61
56
53
52
49
45
40
38
36
32
30
30
36
52
72
85
86
79
67
57
50
47
46
44
40
36
31
26
22
21
29
47
67
79
78
69
57
47
42
40
42
46
52
56
57
54
49
43
47
67
94
95
91
79
63
47
32
17
5
5
5
5
5
9
12
11
10
15
24
33
38
38
35
32
31
30
30
30
29
27
25
24
23
22
25
34
46
55
57
53
47
41
38
38
38
37
35
33
30
26
24
24
29
40
51
56
54
48
41
36
35
34
34
33
31
28
25
23
22
21
22
28
35
39
37
31
25
23
19
14
12
9
7
6
5
5
5
6
13
23
32
36
35
30
29
25
22
21
22
23
22
19
17
15
16
24
35
46
51
51
45
39
33
31
29
28
27
25
22
19
20
28
41
54
62
62
58
51
46
42
41
40
37
34
31
27
24
28
40
54
66
70
68
62
55
50
49
49
35
5
5
5
5
5
1
1
2
2
1
1
1
1
1
2
6
1
1
1
1
1
1
1
1
1
1
11
21
29
51
93
100
100
100
100
86
61
56
49
71
100
100
100
100
100
100
100
100
100
100
100
100
100
100
100
100
100
89
83
88
100
100
100
100
100
89
25
1
1
1
1
31
79
100
100
100
100
100
100
100
100
100
100
100
94
100
100
100
100
82
64
61
72
95
100
100
100
100
100
100
100
100
100
99
93
91
90
87
82
76
70
65
62
58
52
46
45
42
40
37
29
14
5
5
5
5
8
12
19
26
34
47
50
58
65
69
68
63
59
56
52
41
24
13
19
36
50
53
49
45
43
46
52
60
71
86
100
100
100
100
100
100
100
100
100
100
100
100
100
100
100
100
100
100
100
100
100
100
100
100
100
100
100
100
100
100
100
100
98
94
96
100
100
100
100
97
92
88
85
83
81
80
78
76
74
71
68
66
66
67
68
66
63
61
59
57
54
53
52
52
53
53
52
51
50
51
55
58
60
60
59
58
57
56
55
54
52
50
50
49
49
49
51
55
59
63
65
66
66
65
63
62
60
58
56
53
50
48
46
46
47
50
55
60
62
62
61
59
58
58
59
60
57
53
49
45
45
47
52
57
60
61
59
57
55
54
53
52
50
48
46
44
42
42
45
51
56
60
60
59
57
54
53
53
55
63
75
82
78
63
50
52
68
84
86
79
78
77
78
70
48
25
13
10
10
11
13
18
19
17
20
33
49
55
51
46
46
44
34
20
9
5
5
5
5
6
11
21
36
47
50
48
47
48
46
40
33
30
32
36
36
32
26
25
27
30
32
38
49
57
57
51
48
51
55
54
49
45
45
44
39
31
25
24
31
44
59
67
67
67
70
72
68
59
52
52
55
57
52
47
46
53
63
69
69
68
67
65
60
56
55
55
61
63
57
49
48
52
54
48
45
49
52
65
72
67
56
50
53
57
55
50
48
51
50
43
40
37
28
24
34
52
67
77
84
91
90
79
66
63
69
69
55
34
22
28
49
70
80
82
83
85
86
83
73
63
55
53
56
60
61
62
71
91
95
95
94
87
75
65
58
52
46
39
33
27
21
16
12
14
21
32
45
55
62
65
62
53
43
34
28
25
24
23
22
22
26
35
46
54
57
58
61
66
70
67
58
45
35
28
26
26
26
27
32
42
51
54
62
65
63
60
58
58
60
63
65
66
65
59
51
40
33
34
43
53
60
61
60
56
50
45
42
40
38
35
32
29
28
25
23
21
23
31
45
58
65
64
58
51
45
42
41
40
38
35
33
30
26
26
33
47
60
66
64
56
49
47
46
46
44
42
40
37
31
27
25
29
42
62
82
93
93
85
72
63
58
56
52
47
42
39
36
32
33
42
61
81
95
95
92
83
74
66
60
52
44
37
32
27
22
18
18
26
44
63
76
79
76
68
59
51
47
45
42
38
34
33
30
26
23
21
24
37
57
74
81
76
66
55
47
43
42
42
42
42
42
43
44
45
49
58
74
91
95
92
81
66
54
46
42
37
33
27
21
15
11
9
9
14
30
52
72
81
80
71
62
54
49
47
45
44
43
41
40
39
38
44
61
87
95
95
92
85
78
74
73
68
63
56
48
38
29
21
16
15
18
20
32
48
60
62
56
47
40
37
36
36
34
32
28
25
23
23
27
41
60
75
81
77
68
59
53
50
49
47
44
40
36
33
31
31
35
50
72
89
94
89
78
67
59
57
56
54
52
48
43
38
33
30
33
48
70
90
95
89
77
66
58
54
52
50
47
42
38
35
33
36
50
72
91
95
89
77
65
57
53
52
50
47
42
37
32
28
28
37
46
58
81
95
93
82
69
59
54
53
51
48
44
42
38
32
28
25
29
44
68
89
95
87
73
59
50
47
46
43
39
33
27
22
18
17
26
48
73
88
87
74
58
47
42
42
41
39
34
29
24
20
21
35
60
84
94
88
72
56
46
43
43
42
38
31
25
20
17
23
45
77
95
95
89
77
65
57
53
52
50
46
41
36
31
27
31
47
72
93
94
89
77
65
57
53
51
49
46
41
35
30
26
25
33
54
78
93
93
82
68
57
51
50
49
46
42
36
31
27
24
30
48
74
93
94
86
72
59
52
49
49
47
43
37
32
30
27
23
22
32
55
82
95
94
86
74
63
56
52
50
48
45
41
36
32
28
25
30
46
70
89
93
86
72
59
50
45
43
41
38
34
29
26
24
21
23
37
61
84
94
93
89
76
62
52
46
45
43
40
35
29
23
19
17
18
32
58
86
95
92
82
68
56
48
43
38
34
28
22
16
12
8
8
19
42
67
83
84
74
60
49
41
38
36
33
28
22
16
11
7
6
17
41
68
85
85
73
58
45
39
36
35
32
27
21
16
11
8
13
32
61
85
89
93
87
72
58
48
44
43
41
36
30
22
15
9
5
6
22
51
80
93
90
75
58
46
40
38
38
36
31
25
19
15
19
38
68
93
95
95
89
75
61
50
44
42
40
36
31
25
21
18
24
44
78
95
95
92
83
72
62
56
54
52
50
47
44
40
35
32
31
36
49
67
79
81
76
67
59
54
51
49
47
44
40
36
32
28
25
28
41
60
75
79
73
63
53
46
42
41
40
37
33
29
25
22
19
22
36
46
56
71
74
67
54
43
38
38
40
40
38
35
32
29
28
33
50
73
91
94
87
73
61
54
53
52
49
45
40
38
36
37
46
56
68
95
95
95
91
83
76
71
70
70
70
68
64
57
47
37
34
41
54
65
67
63
55
53
46
39
35
34
34
33
30
26
23
22
22
30
40
44
59
67
66
58
48
41
37
36
36
34
31
26
22
22
19
17
19
30
47
59
62
56
46
37
33
32
33
33
31
28
25
22
20
23
35
54
70
75
74
68
56
46
41
41
41
40
38
35
32
30
29
35
38
51
73
88
91
84
72
60
53
50
49
47
44
40
35
30
29
37
57
80
94
95
93
82
68
57
51
49
48
45
45
41
37
32
28
30
44
68
90
95
88
74
60
51
48
49
48
44
39
33
29
29
41
65
91
95
93
83
71
61
55
52
50
48
44
39
35
31
33
45
68
89
95
91
80
68
58
52
50
47
44
39
33
28
24
22
24
38
60
80
88
83
70
57
47
43
42
41
39
39
37
34
31
28
27
34
53
77
93
93
81
65
53
47
46
46
44
40
34
28
23
20
21
35
61
68
87
95
90
77
63
51
46
43
42
38
34
27
22
17
14
13
24
49
82
89
95
94
84
71
61
55
53
51
48
44
39
33
27
21
16
16
27
50
74
86
84
72
57
46
39
37
36
34
31
27
23
19
15
16
26
48
72
85
84
73
59
47
40
38
36
34
29
24
19
15
13
12
16
32
57
80
91
87
73
57
48
45
40
38
37
34
28
21
15
10
8
13
31
57
77
81
73
58
45
36
32
30
27
23
18
12
8
5
5
10
28
50
66
68
60
47
36
31
30
30
28
25
20
16
12
10
16
33
49
54
67
69
68
59
46
36
32
33
33
32
28
23
18
14
16
30
52
58
70
76
69
57
47
41
40
40
39
35
30
24
19
21
36
61
82
92
88
78
67
58
54
51
49
46
40
34
27
26
25
34
58
84
95
94
87
77
68
62
59
57
54
49
43
36
30
25
24
35
58
82
95
93
85
75
65
59
56
54
51
46
40
38
38
42
51
59
68
76
86
95
95
95
93
82
78
66
59
63
71
68
54
40
33
31
26
18
18
34
56
69
69
65
62
58
51
41
34
35
41
42
35
22
15
13
11
10
16
33
56
71
73
65
54
49
52
56
53
44
35
34
36
32
22
12
12
16
20
29
45
65
79
80
70
55
43
38
36
34
30
25
20
15
10
6
5
5
5
6
16
37
62
79
82
76
66
58
54
51
46
41
34
28
24
20
15
10
7
8
22
47
73
87
87
78
66
55
50
48
47
46
41
35
31
28
27
27
30
32
43
67
90
95
93
83
71
61
58
59
57
51
41
31
24
23
25
28
32
43
61
78
85
80
69
59
53
52
51
47
41
34
28
24
22
22
26
36
54
75
89
93
91
85
73
55
34
15
5
6
14
21
20
7
5
5
9
26
48
65
68
62
52
43
39
40
42
44
44
43
42
42
41
39
42
53
66
74
74
68
59
52
47
45
45
43
39
32
25
18
15
18
31
50
64
68
61
48
35
27
25
26
27
26
23
20
18
19
28
43
55
59
55
46
39
33
31
29
27
24
21
17
14
13
18
31
46
49
55
55
49
40
34
31
31
31
29
26
21
16
14
18
31
47
56
56
51
48
49
51
48
40
33
28
23
17
13
18
33
51
61
60
58
61
63
58
46
40
44
48
39
25
18
20
25
32
42
58
74
81
74
58
48
56
72
76
60
37
25
23
20
9
5
5
15
40
64
74
69
63
61
61
55
47
43
45
48
46
39
31
24
16
12
16
32
54
72
80
82
82
82
76
66
57
52
50
50
50
54
59
60
52
39
36
29
31
41
54
69
81
91
95
95
90
77
62
59
67
72
65
49
38
40
42
36
22
10
14
37
66
83
83
77
76
74
67
55
48
51
57
55
44
31
26
27
31
35
33
29
39
65
89
94
82
69
68
74
73
58
36
24
24
25
18
5
5
6
16
30
43
53
58
56
49
42
42
48
51
42
5
1
1
1
11
49
63
56
48
53
63
63
56
47
31
26
38
58
80
100
100
100
100
100
96
96
100
100
100
100
100
100
98
92
88
84
83
83
82
78
71
67
66
67
69
71
74
74
71
62
50
41
37
38
41
43
43
41
37
33
30
29
33
39
45
49
50
48
47
46
45
44
43
42
40
38
35
32
31
33
38
45
51
53
52
49
47
46
47
47
47
46
44
41
38
37
38
43
49
54
56
55
53
50
48
47
47
46
45
44
43
42
39
37
38
44
50
54
53
51
48
45
43
40
38
36
35
33
32
31
34
42
51
58
59
56
50
45
42
41
39
37
35
33
32
33
38
48
56
60
60
57
53
52
49
46
43
42
39
37
34
33
34
40
49
57
58
60
59
57
55
52
51
49
48
47
45
44
43
45
50
58
64
66
65
62
59
56
54
54
53
51
47
42
37
34
37
45
53
58
59
61
59
54
48
45
44
45
46
43
37
31
26
24
31
44
58
66
67
63
58
55
55
55
52
47
42
39
39
37
32
33
43
61
79
84
74
59
48
44
46
47
45
40
35
30
31
36
39
42
50
60
63
65
66
68
67
61
53
47
38
36
30
24
21
18
15
13
15
26
47
65
74
75
69
58
48
44
44
44
41
34
23
10
5
5
14
33
53
63
63
62
54
45
38
35
33
33
31
29
25
22
18
16
19
32
54
74
83
81
74
67
62
61
60
57
54
49
45
41
40
51
72
92
95
92
83
72
63
58
56
54
51
47
42
38
37
46
64
84
95
94
91
86
72
58
47
42
41
42
44
41
29
18
21
46
84
95
91
79
69
64
63
63
58
49
46
39
32
28
27
24
18
20
36
63
88
95
92
81
70
66
72
81
85
83
77
71
67
63
63
71
85
95
95
95
95
94
93
90
84
77
70
65
61
58
55
50
40
30
23
22
28
38
48
48
42
34
29
27
26
27
31
33
29
24
30
48
66
76
73
60
47
40
39
40
40
38
32
28
28
36
37
28
16
11
9
7
5
5
5
5
6
6
5
5
5
5
5
11
23
36
46
48
47
43
45
55
66
71
65
50
31
17
15
32
62
87
94
83
66
58
63
73
75
64
45
29
24
32
45
49
44
37
35
37
40
46
52
47
27
5
5
5
8
10
12
13
18
27
39
48
38
16
5
6
13
19
20
15
11
10
13
13
5
5
5
16
30
31
21
13
17
29
36
31
18
12
19
31
34
23
11
12
28
43
21
1
1
1
1
2
8
5
3
7
14
20
23
24
25
28
32
35
37
36
35
35
36
37
35
31
27
27
30
37
41
33
15
5
11
31
48
25
1
1
1
1
1
3
16
12
0
1
1
1
1
1
1
4
11
5
1
1
4
13
23
29
30
31
32
33
35
38
42
46
48
47
45
44
43
43
43
45
65
100
100
100
100
100
100
100
100
100
100
100
100
100
100
100
100
100
100
100
100
100
100
100
100
100
100
100
100
98
100
100
100
100
78
59
48
55
73
88
90
83
75
72
73
73
67
56
43
34
29
25
23
20
16
14
17
29
47
63
66
70
68
63
57
53
53
57
68
83
92
87
68
50
46
53
63
69
68
63
58
55
55
62
74
81
74
57
39
34
44
59
68
67
63
64
71
73
76
68
49
31
21
20
26
33
39
43
44
45
44
42
39
36
33
32
32
32
30
28
26
28
36
48
60
65
62
61
56
50
49
49
55
64
71
70
62
54
53
58
61
57
51
51
60
73
79
73
58
45
40
42
45
42
36
35
42
51
51
45
39
39
41
45
47
47
43
36
30
27
24
22
21
21
23
33
47
54
55
55
54
54
56
60
62
57
47
38
32
30
30
30
28
24
19
20
34
59
79
83
76
67
63
61
58
51
45
42
41
42
37
29
23
26
40
53
61
60
55
50
48
43
41
43
52
65
72
67
49
28
18
24
40
55
61
58
49
39
32
27
24
21
18
15
15
20
35
60
90
95
95
93
85
83
74
62
50
40
33
30
28
27
26
26
28
34
41
49
54
56
55
49
40
31
25
21
19
17
16
16
18
26
37
47
50
48
43
40
46
59
72
76
67
49
32
24
28
40
52
57
56
51
46
42
41
39
38
38
39
38
37
37
44
58
62
74
83
83
77
68
59
53
49
46
44
40
37
34
37
48
61
71
74
70
63
56
51
48
47
45
41
36
32
35
47
64
76
81
79
75
71
70
70
70
68
65
59
55
56
65
78
87
91
89
84
77
70
64
60
55
48
41
39
36
38
48
59
65
66
64
58
49
41
39
36
33
31
27
23
17
13
14
22
34
43
44
39
32
25
21
19
18
17
14
10
7
6
10
20
30
35
35
34
28
23
19
17
16
15
14
12
9
7
7
14
24
33
35
32
27
23
20
19
19
18
17
16
14
12
12
17
26
36
41
39
34
28
23
21
20
20
19
17
15
14
15
24
35
44
45
42
36
31
27
25
24
23
22
20
18
16
20
31
35
44
51
51
46
40
35
33
33
33
33
30
27
24
26
38
42
53
63
66
61
54
46
42
41
41
40
36
30
22
12
6
11
28
45
54
55
49
41
34
30
29
30
29
26
24
22
19
24
41
63
78
81
75
65
57
52
51
50
47
42
36
30
29
41
64
88
95
93
86
77
69
64
61
59
56
51
45
40
43
59
82
95
95
91
83
74
68
64
61
58
57
54
48
42
38
39
52
73
91
95
92
84
74
67
63
60
58
54
48
42
36
33
37
54
75
90
94
89
79
69
63
60
57
54
49
43
37
31
26
28
43
68
90
95
92
82
72
64
60
57
55
50
45
38
32
27
27
39
62
85
95
93
85
74
65
60
57
55
54
51
45
39
32
26
21
24
40
65
88
95
95
91
82
70
62
58
56
54
50
44
37
30
29
24
20
20
33
58
84
95
93
84
73
67
63
59
57
56
53
48
42
35
30
25
22
28
48
76
95
94
88
77
66
58
55
53
51
46
40
33
27
22
18
22
38
63
84
92
88
76
63
55
52
51
49
45
39
33
27
22
21
31
55
82
95
93
85
72
61
56
54
52
50
45
38
32
26
22
26
43
71
95
95
91
82
71
63
58
57
55
52
47
41
35
31
32
45
67
87
95
91
80
69
60
56
55
54
50
49
46
40
34
31
36
54
76
92
94
87
76
65
59
56
54
54
52
47
41
38
35
29
28
38
59
82
95
94
87
77
72
68
63
60
58
54
49
42
35
29
27
34
54
77
93
94
89
79
70
63
59
57
54
50
43
36
34
29
23
21
28
48
73
91
95
89
79
69
61
58
55
52
46
39
32
24
18
14
18
36
62
84
92
89
78
65
57
53
50
48
44
37
29
22
16
20
39
67
89
95
90
78
65
56
51
48
45
39
32
24
16
12
18
40
69
90
95
89
77
65
55
49
45
40
34
27
18
10
5
8
24
49
70
78
74
63
50
40
34
30
26
21
13
5
5
5
5
9
23
42
55
59
54
46
38
32
29
28
26
22
17
12
8
7
5
5
13
29
45
55
56
49
41
33
29
28
27
27
25
22
17
13
8
5
8
22
42
58
65
63
56
47
41
38
36
35
32
28
22
17
12
9
14
31
54
72
80
77
69
59
52
48
46
44
40
35
29
23
17
14
19
38
51
64
85
93
90
80
69
60
56
53
50
46
39
32
25
23
18
14
18
37
66
92
95
92
82
71
61
56
54
52
48
42
36
28
22
20
31
56
87
95
94
88
76
64
59
59
60
59
54
49
44
39
34
35
49
75
95
95
95
88
71
61
67
84
91
75
43
21
24
41
47
37
30
33
5
5
2
2
8
14
17
18
11
4
0
0
3
8
16
24
30
35
38
42
44
44
43
44
48
57
70
84
88
99
100
100
100
100
100
100
100
100
100
100
100
100
100
100
100
100
100
100
100
100
85
46
13
5
15
43
52
78
100
100
100
100
77
48
19
5
5
5
5
16
20
40
76
100
100
100
100
84
61
41
25
16
12
13
16
23
35
51
69
86
95
100
100
100
100
99
97
97
95
88
68
31
0
1
1
1
1
1
1
1
1
1
1
1
1
1
1
1
1
1
1
1
1
1
1
1
1
23
17
11
5
5
5
5
7
17
31
45
49
51
52
48
44
40
38
36
35
33
30
26
23
19
16
20
33
49
61
64
60
54
48
45
43
43
42
39
35
29
23
18
18
30
48
63
70
68
61
54
48
44
43
41
38
34
33
28
22
16
12
14
29
51
69
77
74
67
59
52
48
46
45
42
38
32
26
20
16
22
40
62
78
82
82
78
69
60
53
50
48
46
42
37
31
24
18
15
23
44
69
84
87
81
71
62
56
55
58
64
70
76
78
74
60
41
27
25
19
5
5
1
1
1
1
1
1
1
1
1
1
1
1
1
1
1
1
1
1
1
9
80
100
100
100
100
100
100
100
100
100
100
100
100
100
100
100
100
100
100
100
100
100
100
100
100
100
100
100
100
100
100
100
98
94
91
89
88
87
85
83
80
77
75
73
72
70
68
66
64
62
65
73
82
87
86
80
72
66
63
61
60
59
58
56
55
54
54
54
55
61
70
77
77
71
63
56
52
51
50
49
48
46
44
43
42
41
43
50
59
64
64
60
55
50
48
48
48
47
47
45
44
43
42
41
42
48
56
61
61
57
52
49
47
47
48
49
50
49
48
46
44
43
42
43
48
56
62
65
63
58
54
52
51
51
50
49
48
46
44
42
41
44
50
59
65
65
61
56
52
50
50
50
49
48
46
44
43
42
44
51
61
69
70
67
60
55
52
50
49
49
47
45
44
42
41
41
46
57
68
73
71
66
60
55
52
51
51
49
47
45
43
41
39
40
46
58
71
76
74
66
58
52
49
49
48
47
46
44
41
41
39
37
36
36
40
52
67
76
78
77
70
61
54
50
48
47
46
44
41
38
35
34
37
49
65
76
76
69
58
50
46
44
44
43
41
38
35
32
31
36
51
69
79
78
70
59
50
45
43
42
41
38
35
32
29
27
31
44
64
78
81
75
64
53
47
43
42
41
38
35
32
29
27
26
33
52
74
87
86
76
63
52
47
45
45
44
41
37
34
30
28
29
41
63
85
93
87
73
59
50
46
46
46
43
39
34
30
26
26
35
58
83
95
90
76
60
48
42
40
39
37
33
27
21
16
14
19
39
67
88
92
82
67
54
46
41
39
36
31
25
19
15
12
16
32
63
93
95
92
83
72
64
59
57
56
54
51
49
46
43
43
53
77
95
95
89
76
62
53
48
45
43
40
38
35
33
32
32
37
50
63
68
64
54
44
38
36
36
36
34
33
31
29
28
27
30
41
57
67
67
58
48
46
41
38
37
37
36
34
32
30
29
28
28
32
34
43
54
58
54
45
38
34
33
32
31
28
25
21
19
17
17
21
26
31
32
29
24
21
19
19
19
19
19
18
18
17
18
21
27
33
36
36
34
32
31
31
32
33
33
33
32
32
32
33
36
44
46
51
54
52
48
45
46
49
53
56
60
65
68
72
75
77
80
83
85
86
87
87
86
80
70
59
49
43
40
39
39
39
40
42
45
49
50
49
46
43
42
42
42
42
40
38
36
34
34
33
35
40
48
50
46
35
24
16
12
10
10
10
11
12
13
13
15
22
39
68
93
95
88
77
66
61
59
57
55
52
51
47
44
42
40
42
50
61
67
65
58
50
45
43
42
42
40
38
35
33
31
30
30
35
47
57
61
56
48
41
37
37
37
37
35
33
31
29
28
27
27
31
42
54
59
56
48
40
36
36
38
38
37
35
33
31
29
28
30
38
49
56
54
47
40
36
35
35
34
33
31
29
28
26
25
26
31
41
51
54
51
45
39
35
34
34
34
33
31
29
28
26
25
27
34
46
56
59
54
47
41
39
38
38
37
36
35
33
32
31
30
30
37
51
64
69
66
58
50
47
46
47
47
45
42
40
38
36
35
37
47
62
65
72
73
66
56
49
46
46
46
44
40
37
33
30
28
30
41
59
74
76
70
59
50
46
44
42
40
37
34
30
26
24
23
27
41
62
77
79
72
62
54
51
50
48
45
40
36
32
29
25
24
33
52
72
82
78
67
54
45
39
35
32
28
27
24
21
17
13
12
19
36
56
68
68
60
49
41
37
35
34
32
29
25
20
16
13
15
27
48
65
70
63
49
35
25
20
17
13
8
5
5
5
5
5
5
6
14
27
36
35
24
7
5
5
6
8
10
9
8
7
6
6
6
11
25
46
62
67
61
51
43
39
39
38
36
33
30
26
23
21
29
47
68
81
80
69
56
47
44
44
44
42
39
35
31
27
24
23
30
46
64
73
71
61
50
43
39
38
36
33
29
24
21
18
17
16
21
34
50
61
61
54
44
38
35
34
34
32
29
26
24
21
20
20
27
44
62
69
63
49
37
30
28
28
27
25
22
18
16
13
12
14
25
43
56
59
50
34
18
7
5
5
5
5
5
5
5
5
5
16
52
95
95
94
90
80
70
64
61
60
58
55
51
47
43
40
38
41
56
85
95
95
94
90
84
79
75
71
65
60
54
48
42
35
27
15
5
5
5
7
7
6
5
5
5
7
9
11
12
12
13
14
14
15
16
20
26
33
37
38
37
35
33
33
33
33
33
33
32
32
32
31
32
34
39
46
52
54
52
49
46
44
43
43
43
42
39
36
34
33
32
33
37
44
51
55
55
52
48
45
44
43
43
43
42
40
39
37
36
36
39
46
54
59
59
59
56
51
48
45
45
44
44
42
41
39
37
36
37
42
51
59
61
59
55
50
47
46
45
45
43
41
39
36
34
33
35
43
53
59
60
57
52
47
44
43
42
40
38
36
33
32
30
30
33
42
53
60
61
57
52
47
44
43
42
41
39
36
34
31
29
28
29
37
49
61
66
64
59
52
47
45
44
44
43
41
37
34
31
29
29
36
48
60
65
63
56
49
43
41
41
41
39
37
33
30
27
25
29
41
58
69
72
67
60
52
48
46
45
44
42
38
34
31
28
26
30
42
59
71
74
69
59
51
45
41
40
37
35
32
29
27
25
24
25
33
51
69
79
77
69
59
51
48
47
47
45
41
36
32
28
25
28
41
61
76
79
73
61
50
44
41
41
40
36
32
27
23
20
19
29
50
72
84
83
74
62
52
47
46
46
44
41
37
33
29
27
32
50
73
90
91
82
68
56
49
47
45
43
38
32
27
22
20
27
48
74
91
93
83
68
54
45
41
40
37
33
26
20
15
11
10
21
47
77
94
92
80
64
50
41
38
36
33
28
23
17
12
8
5
9
28
58
84
94
87
73
57
47
42
41
40
37
31
25
19
14
10
9
21
49
81
95
92
78
61
48
41
39
39
38
34
30
25
21
18
23
43
74
95
94
85
69
54
44
40
39
38
35
30
25
19
14
12
20
41
65
79
77
65
48
33
23
18
16
13
9
5
5
5
5
7
19
41
62
71
68
57
44
35
32
32
32
31
29
25
21
18
15
14
18
33
57
76
79
69
54
41
34
33
33
31
28
26
23
18
14
12
20
42
67
82
81
69
54
41
36
34
34
31
26
21
16
12
11
20
44
72
90
91
79
63
49
41
39
38
37
33
28
23
18
15
18
38
68
93
94
87
84
72
58
48
44
43
43
42
38
34
28
24
19
19
30
56
81
93
87
71
54
41
36
35
33
29
23
17
11
5
5
10
31
62
84
90
81
65
50
41
38
36
34
29
26
23
15
9
5
5
9
25
46
60
61
52
39
28
22
20
20
20
19
17
13
9
5
5
5
6
18
23
42
67
79
79
77
66
53
44
41
41
41
39
34
29
23
18
14
13
25
49
73
85
82
70
55
45
40
37
35
31
26
20
15
11
7
7
18
44
73
88
86
73
58
45
38
36
35
33
30
24
19
14
11
15
34
64
89
95
87
71
66
53
41
34
31
30
28
25
21
18
13
13
25
51
76
86
81
67
51
39
34
32
30
25
18
10
5
5
5
9
26
50
69
74
75
68
56
44
36
31
28
26
23
20
16
11
5
5
6
19
45
71
83
79
65
51
40
35
33
32
31
29
28
26
22
20
28
51
77
90
86
71
55
44
41
40
38
32
25
20
18
17
15
21
40
66
83
84
74
57
39
26
20
21
22
25
26
22
14
5
5
6
18
41
66
78
75
64
51
42
35
27
17
8
5
5
5
5
5
5
8
24
45
58
58
49
36
28
25
26
27
26
23
18
15
14
16
17
21
32
48
61
65
61
52
42
33
28
28
29
29
28
25
21
17
16
20
35
57
75
79
73
62
53
49
48
46
43
38
35
34
34
32
28
26
35
55
75
84
79
66
51
40
36
39
43
45
44
42
36
29
28
25
26
35
54
74
81
75
63
53
48
47
45
39
31
27
28
31
32
32
42
63
84
94
91
79
63
51
44
42
41
39
34
27
20
20
34
62
91
95
90
77
63
54
50
47
42
36
30
24
19
13
10
16
36
62
78
80
79
69
54
42
35
33
31
29
25
20
14
7
5
5
15
35
53
58
50
34
19
7
5
6
12
13
5
5
5
5
5
5
5
10
18
22
12
5
5
5
5
5
5
5
5
5
5
5
5
5
5
5
0
1
1
1
1
1
1
1
1
1
0
9
19
28
30
35
38
42
47
56
68
82
95
100
100
100
100
91
84
80
77
73
69
63
58
53
50
48
48
50
52
54
55
55
54
53
52
50
49
47
46
44
44
45
46
48
50
52
54
55
55
55
54
53
53
52
52
52
52
50
48
44
42
41
43
46
50
52
52
51
50
50
49
49
49
50
50
50
49
49
49
48
47
47
47
47
48
50
51
51
51
50
49
49
49
49
48
48
48
47
47
47
46
46
46
47
49
51
51
51
50
49
49
49
49
49
48
47
46
46
45
45
45
45
47
49
51
51
51
50
49
48
48
47
47
47
46
46
46
45
45
46
47
50
51
51
50
49
48
47
47
47
47
47
46
45
45
45
45
47
50
52
53
52
50
49
48
47
47
47
46
46
45
44
44
45
48
51
54
55
54
52
50
49
49
49
49
48
48
47
46
45
45
46
48
51
54
55
54
52
50
49
49
49
49
49
48
47
47
47
48
52
56
60
60
59
56
52
50
49
48
48
48
49
50
50
50
49
49
51
53
55
55
54
52
51
50
49
49
48
47
45
44
43
44
48
53
58
59
58
55
51
49
49
48
48
48
46
44
43
43
44
48
54
58
58
56
52
48
46
46
46
46
45
44
42
41
41
45
51
58
62
61
57
54
51
51
50
49
47
45
43
40
37
36
40
48
55
58
57
55
53
53
55
56
56
55
52
47
42
39
38
40
47
56
57
61
62
59
54
49
46
45
44
43
42
41
39
37
37
42
51
59
63
61
56
50
45
43
43
43
42
40
38
36
35
38
47
56
61
59
55
49
44
41
40
39
38
37
35
32
30
32
41
53
61
63
59
54
48
45
43
42
41
38
36
34
32
31
34
45
57
65
65
60
53
46
42
41
40
40
38
36
34
33
33
39
52
65
71
68
60
51
46
44
44
43
41
37
33
29
26
27
36
53
69
77
75
67
59
53
51
52
53
51
46
41
36
31
27
26
36
54
71
77
73
62
50
43
42
41
39
37
33
29
27
25
23
26
40
60
77
84
80
70
58
49
47
48
48
47
44
40
35
32
31
39
59
81
94
92
80
65
54
49
48
49
48
45
40
34
29
24
22
29
49
76
95
94
88
75
64
57
54
52
50
46
42
37
32
31
28
27
35
55
77
88
86
76
65
55
49
47
46
41
34
25
20
17
17
27
50
77
95
94
87
73
60
53
51
52
55
55
51
42
27
13
11
32
67
93
94
85
71
58
52
50
50
49
49
46
42
36
29
28
38
60
80
90
89
79
67
55
48
43
40
36
33
30
28
24
21
22
35
59
82
93
89
76
62
50
44
40
38
33
28
21
15
10
9
9
20
45
70
85
83
71
56
43
36
33
31
27
22
17
12
7
7
18
43
69
85
83
70
55
44
42
42
41
36
30
22
16
11
14
17
32
63
89
94
86
69
53
38
37
36
34
29
22
16
13
19
42
72
93
94
87
72
57
51
52
54
50
43
35
29
25
22
28
47
76
95
95
88
75
62
53
48
47
45
41
35
29
23
18
15
17
33
58
80
89
85
74
60
51
47
48
50
50
47
39
29
18
14
24
50
79
95
92
80
65
52
44
41
37
27
13
5
5
5
5
5
5
5
11
21
28
29
27
24
23
24
27
28
31
33
32
31
31
31
31
32
36
43
51
56
56
53
49
46
44
44
44
43
42
40
38
36
35
36
41
50
58
61
60
56
52
50
49
49
50
49
48
47
46
44
43
45
52
60
64
63
58
53
49
48
49
49
48
46
44
42
40
40
42
50
60
66
67
63
56
51
49
48
48
46
45
44
43
43
42
41
44
53
64
73
75
71
64
58
55
53
52
52
50
48
45
43
41
44
54
65
73
73
67
60
54
51
51
52
52
52
50
47
44
41
42
50
64
76
79
74
66
58
54
52
52
52
50
47
43
40
41
50
65
79
85
81
72
62
56
53
52
50
48
44
38
34
31
35
49
67
80
83
77
67
58
52
49
49
47
44
40
35
30
28
27
29
42
62
78
84
79
67
56
48
45
46
45
43
38
34
29
26
24
24
33
54
75
87
86
76
62
51
46
46
46
45
41
37
33
29
25
23
30
50
76
92
93
83
68
55
49
47
45
43
39
33
27
22
18
17
26
49
77
95
94
86
73
61
53
50
48
45
40
34
27
22
18
14
13
19
39
68
92
94
89
77
63
53
48
46
45
42
37
33
27
21
17
15
21
40
67
89
94
86
70
54
44
41
40
40
38
32
25
19
16
14
18
34
61
86
94
87
71
55
45
42
42
41
38
37
33
28
25
22
23
37
64
91
95
91
78
64
52
46
45
44
42
38
31
26
21
21
32
58
85
95
92
82
67
56
50
47
45
43
39
33
28
24
22
28
46
72
90
93
83
69
57
50
48
46
44
40
35
30
26
22
24
37
62
84
93
86
68
49
36
30
27
25
22
16
9
5
5
5
13
32
52
61
57
43
28
19
15
14
13
10
5
5
5
5
6
14
33
55
68
69
62
52
44
40
39
39
37
34
31
28
25
24
28
40
58
73
78
73
63
54
48
47
46
45
42
38
34
30
26
24
28
42
63
81
86
80
70
59
52
50
51
50
48
44
39
33
29
29
39
59
80
89
85
74
61
51
46
45
44
42
38
32
26
22
20
27
46
70
88
91
84
70
57
49
46
45
44
41
36
30
25
21
19
25
46
72
89
91
82
67
53
44
42
42
40
37
31
25
20
16
13
16
35
65
91
94
87
73
58
49
46
45
44
40
36
30
23
14
5
9
48
95
95
84
49
5
5
5
5
5
5
5
5
5
5
5
5
1
1
1
1
1
1
1
1
1
1
1
59
59
57
54
51
46
41
37
33
30
30
36
51
66
75
76
72
67
61
58
57
56
54
51
46
41
37
33
29
28
35
51
67
76
77
72
64
58
56
55
54
52
48
43
38
33
28
27
36
53
71
81
82
76
68
62
59
58
56
54
49
43
36
31
26
25
33
51
71
83
85
81
73
66
62
60
58
55
50
45
38
33
28
24
27
41
60
74
79
76
69
62
57
54
53
50
47
41
35
29
24
20
19
25
42
60
72
73
68
60
53
49
47
46
43
39
33
27
21
16
12
12
21
40
59
69
68
62
53
47
44
44
43
42
40
35
30
24
19
16
19
32
52
68
74
71
63
55
50
47
46
43
39
33
27
22
18
19
32
55
75
85
84
77
68
61
58
57
55
50
44
42
36
28
24
32
52
77
93
94
89
80
70
64
61
60
56
50
42
34
28
35
55
79
95
94
88
79
69
63
60
57
52
46
38
30
23
21
22
31
53
75
87
86
77
66
57
52
49
47
42
35
26
18
10
5
7
22
45
66
74
70
60
49
41
37
35
32
26
18
10
5
5
5
5
8
22
41
55
59
55
47
39
35
34
33
32
28
22
17
12
7
5
11
22
27
46
59
61
55
46
39
36
36
35
33
29
23
18
14
11
13
26
47
66
74
72
65
57
51
49
48
47
43
36
29
23
17
16
13
17
59
81
91
89
82
73
65
62
61
58
53
46
37
29
27
22
18
23
43
71
94
95
92
84
75
68
65
63
60
55
47
39
31
24
17
15
23
46
73
92
94
89
78
69
63
60
58
55
48
40
31
23
16
16
30
56
81
94
92
82
69
59
56
54
52
47
39
30
21
13
13
28
58
87
95
93
85
74
65
60
59
56
51
44
35
27
20
18
29
55
84
95
95
90
82
74
68
66
64
60
54
47
39
32
31
27
25
35
57
82
95
95
90
83
75
70
67
65
61
55
48
41
35
30
26
29
44
66
72
85
93
92
84
75
68
64
62
59
53
46
38
31
25
19
16
20
36
60
80
89
87
78
69
62
59
58
55
50
42
34
27
21
16
16
29
52
77
90
90
81
70
61
57
56
54
49
41
32
24
17
12
16
36
65
92
95
93
85
76
68
64
62
59
54
46
38
30
24
18
14
17
34
62
87
95
94
87
78
71
67
64
61
57
50
42
35
28
23
19
19
32
56
69
80
93
94
87
77
68
64
61
58
54
46
38
30
22
16
10
5
6
19
45
72
89
91
83
72
63
59
57
55
50
44
42
35
26
19
13
7
6
17
41
69
86
88
79
67
57
52
51
50
46
39
30
22
14
7
7
22
52
81
95
93
85
82
73
64
59
57
55
50
43
34
25
17
11
7
13
36
67
91
95
91
81
72
65
61
59
56
51
44
36
28
22
16
15
26
50
76
92
94
88
78
69
64
61
59
56
49
41
32
24
18
12
10
19
42
71
90
94
87
76
65
59
57
56
52
45
34
23
14
10
10
13
28
64
95
95
95
93
88
81
75
70
64
56
47
39
35
34
36
39
44
52
60
65
65
62
57
52
51
52
53
54
51
45
39
34
34
41
51
59
61
59
54
49
45
41
38
35
32
29
24
19
15
16
24
37
48
53
52
46
39
32
27
25
25
24
23
20
15
13
18
30
40
45
42
34
27
21
20
20
19
18
14
11
8
11
21
35
46
49
46
41
34
29
27
26
26
25
22
17
13
16
29
44
53
54
50
43
36
31
27
25
24
21
17
10
5
7
20
35
46
50
49
40
28
16
10
8
7
5
5
5
5
9
20
30
35
33
28
21
17
15
15
15
15
14
13
11
10
15
26
39
47
47
43
36
31
27
26
26
25
24
22
19
20
28
41
54
59
57
51
44
38
35
34
33
31
29
26
24
24
34
49
63
69
66
59
51
45
42
40
39
37
34
30
26
26
35
53
69
76
74
65
56
49
44
42
41
39
35
31
30
27
26
35
53
70
79
76
67
56
48
45
43
42
40
37
32
28
29
41
61
79
86
82
71
59
51
48
47
46
43
38
32
28
33
51
76
95
94
89
79
69
62
58
56
54
51
46
41
37
41
58
83
95
95
91
82
73
67
64
62
60
56
51
46
41
42
54
73
90
95
91
83
73
66
61
60
58
54
50
44
39
39
49
67
72
85
94
91
81
70
62
58
56
54
51
46
40
35
36
48
69
88
95
91
80
69
61
57
55
53
49
44
38
33
37
53
77
95
95
91
82
72
65
61
59
56
52
47
41
37
38
50
71
90
95
93
85
76
69
65
63
60
56
51
45
40
37
42
59
79
94
94
89
80
71
64
61
59
56
52
51
47
41
36
31
32
44
65
70
84
94
93
84
74
65
61
58
56
53
48
42
37
32
31
41
61
82
94
93
84
73
63
58
56
54
50
45
38
32
28
29
42
65
88
95
93
86
75
66
60
58
55
51
45
38
32
27
24
28
44
68
89
95
92
84
74
65
60
57
54
49
43
36
30
24
20
21
33
56
79
92
93
93
85
74
63
56
53
49
45
39
32
24
18
14
10
9
10
20
42
67
83
85
78
66
55
49
46
44
41
35
28
21
15
11
9
17
38
64
82
85
78
65
53
46
43
42
38
32
25
18
12
8
11
27
55
81
94
92
82
69
59
53
50
47
42
34
26
19
13
8
10
28
58
87
95
93
85
74
64
58
55
53
48
42
34
27
21
17
17
29
54
80
95
94
87
76
65
59
56
54
50
44
37
30
24
20
21
35
60
84
95
93
83
72
63
59
58
57
53
47
40
33
27
27
40
64
88
95
93
84
72
62
57
54
51
47
42
36
30
26
28
42
65
86
95
93
84
73
64
58
55
52
49
43
36
29
28
25
29
46
68
84
89
84
75
64
55
50
46
42
36
29
21
15
12
21
42
65
80
82
75
64
53
45
40
37
34
28
21
14
9
14
33
58
76
81
76
65
53
45
40
38
36
32
25
18
13
20
41
65
80
81
70
55
43
36
34
33
30
23
15
8
10
26
52
72
79
74
62
48
38
31
28
24
18
11
5
5
8
24
46
62
68
63
52
41
32
26
24
21
17
12
6
5
5
11
28
48
60
62
55
45
36
31
28
27
25
21
15
9
5
5
7
19
39
56
63
60
52
43
36
32
31
30
27
22
17
12
7
5
13
32
54
67
68
60
48
39
34
33
33
31
26
21
15
11
9
19
41
65
80
81
72
60
49
44
43
42
39
33
26
19
13
9
13
31
62
88
95
92
83
72
63
59
57
55
50
44
36
28
22
17
14
22
45
76
95
95
90
81
72
65
62
61
58
53
46
39
32
26
21
18
21
38
65
83
88
95
92
83
72
65
62
61
59
55
49
42
35
30
25
22
27
45
70
90
95
89
78
67
60
59
58
56
52
46
39
32
26
26
37
61
86
95
94
86
76
67
61
60
58
55
50
44
38
32
28
26
34
54
80
95
95
91
82
74
68
65
63
60
55
49
43
42
38
34
31
34
47
68
89
95
93
86
77
69
64
62
60
56
51
44
38
33
29
27
29
43
64
84
93
92
83
73
65
61
60
58
54
48
41
35
29
28
26
28
41
64
86
95
92
83
72
64
60
59
56
52
45
38
32
27
24
28
45
70
93
95
93
85
75
68
63
60
58
54
49
43
37
32
28
27
34
53
77
94
95
90
81
72
64
59
56
53
48
42
35
29
24
20
18
25
44
68
87
93
89
80
69
61
56
53
50
46
40
33
26
21
16
16
27
50
75
90
92
84
72
61
54
51
49
46
40
32
24
18
13
11
21
45
74
95
95
90
80
69
60
56
53
49
44
37
29
22
16
11
8
14
34
63
87
95
92
84
73
63
57
54
51
46
40
32
25
18
13
9
8
20
46
74
92
94
88
77
66
58
54
51
47
42
35
27
19
13
8
5
11
31
61
85
95
91
79
67
58
53
51
49
45
38
30
23
16
11
12
28
56
84
95
95
93
83
71
61
56
54
52
48
41
34
26
19
14
12
24
50
80
95
95
90
81
72
65
61
59
56
51
44
37
31
26
21
23
35
59
81
94
94
87
78
69
63
59
57
53
47
41
34
27
22
19
18
19
31
54
76
88
88
80
70
62
57
54
52
49
43
37
30
24
20
18
27
47
70
84
85
77
66
56
51
50
48
45
40
33
26
20
16
17
31
48
47
44
41
38
36
37
44
56
66
68
65
58
52
49
48
47
46
44
41
38
35
35
42
53
63
66
63
56
51
48
48
48
47
44
41
37
35
38
48
61
70
70
65
57
51
49
48
48
46
42
38
34
32
37
50
64
72
71
65
57
51
48
47
47
44
41
36
32
30
35
49
64
72
71
64
55
49
46
46
45
42
38
34
29
26
27
37
54
68
73
68
59
50
45
44
44
42
39
34
29
24
21
23
34
53
68
73
68
57
48
43
43
43
42
38
33
28
24
22
27
43
63
75
76
66
54
46
43
43
43
43
40
34
28
22
18
18
29
52
74
84
80
69
57
49
46
45
44
40
33
26
20
15
15
28
52
77
88
84
72
59
50
46
46
44
40
33
25
18
13
12
24
49
77
90
87
73
58
47
43
43
42
37
30
21
13
7
5
13
38
46
69
89
88
74
57
44
40
41
42
39
32
24
16
11
14
33
65
92
94
84
67
51
44
43
44
42
37
28
19
12
12
28
60
91
95
89
76
62
53
49
49
47
42
35
27
20
16
24
48
77
95
92
80
66
55
51
51
51
48
41
33
26
21
26
48
76
95
93
80
64
51
47
46
46
43
36
28
20
15
17
36
68
94
95
87
74
61
54
51
51
49
44
37
28
22
19
28
52
81
95
93
82
69
58
54
53
52
48
42
35
29
23
19
23
42
70
90
94
94
84
70
57
50
49
49
46
40
32
24
17
13
11
21
47
76
82
93
91
78
62
51
46
46
46
43
36
27
19
13
11
19
43
74
94
93
80
63
51
47
48
48
44
37
28
19
13
15
36
68
95
94
86
72
60
52
50
50
48
42
35
26
19
16
26
51
81
95
93
82
69
59
54
53
52
49
42
35
28
22
20
29
33
52
78
94
92
81
68
58
54
53
51
47
40
32
24
18
14
18
36
65
88
94
86
72
60
53
51
51
50
48
42
34
26
18
14
20
44
73
92
92
80
64
53
49
49
49
45
37
29
20
15
19
42
75
95
94
85
71
59
54
52
51
47
40
32
25
21
23
26
41
71
95
95
89
76
65
59
58
57
55
50
43
36
34
30
34
50
74
91
93
85
72
61
55
53
51
49
43
36
29
23
22
33
56
63
80
92
90
79
66
57
52
50
50
48
44
37
30
23
17
14
20
40
66
85
87
88
79
66
55
49
47
46
42
36
27
19
12
7
5
8
24
52
76
85
80
67
55
48
45
44
41
35
26
18
10
5
5
6
18
43
68
80
77
65
51
43
41
41
40
35
27
18
11
5
5
11
33
61
80
83
73
58
46
40
39
38
35
27
18
9
5
5
6
19
45
72
86
84
72
59
50
46
44
42
38
30
22
14
8
5
12
35
66
87
91
80
65
52
45
43
42
39
32
23
14
6
5
5
16
41
71
89
88
76
60
48
44
43
43
39
32
23
14
13
8
5
7
23
53
81
93
86
69
54
48
45
44
45
43
38
31
22
15
10
13
33
66
93
94
84
67
52
45
45
46
43
37
28
20
13
10
23
52
85
95
92
81
67
57
53
52
52
48
42
34
26
21
21
37
66
92
95
89
77
64
57
54
53
51
47
40
33
27
23
26
44
71
91
94
85
70
59
54
54
54
52
46
40
33
28
29
44
70
92
94
87
73
61
55
55
56
54
48
41
33
28
32
51
79
95
94
87
76
66
61
60
59
57
53
46
39
33
35
50
74
92
94
86
74
64
58
57
56
54
50
44
37
31
27
31
50
74
89
89
78
65
55
50
48
46
41
35
28
21
16
12
12
26
51
75
84
79
65
51
44
43
43
41
35
28
21
16
14
22
44
73
93
95
94
83
69
57
53
53
53
51
44
36
33
28
21
20
31
57
84
95
90
76
61
52
49
48
46
41
33
24
16
9
10
26
58
89
95
89
75
61
53
51
51
49
43
35
33
27
21
17
15
26
53
80
95
91
77
61
51
48
49
48
43
35
28
26
17
12
14
33
65
92
94
86
71
57
49
48
48
47
45
42
36
30
24
21
27
49
79
95
93
82
68
59
57
59
60
56
48
38
30
24
22
34
60
86
95
89
74
59
51
50
53
53
49
42
34
27
23
27
47
76
95
93
82
67
57
54
56
57
54
47
40
33
27
26
38
63
88
95
89
75
62
54
53
54
53
49
42
36
31
27
30
47
73
93
94
84
69
58
53
53
54
51
44
36
29
23
19
22
41
69
89
92
82
67
57
54
56
56
52
45
36
30
25
24
30
50
77
95
93
81
66
57
55
56
56
56
51
44
36
30
26
23
30
51
78
95
93
81
67
58
56
56
57
56
52
45
38
32
26
22
27
47
72
86
81
66
50
44
46
48
54
56
51
42
32
24
21
29
53
81
95
91
77
61
51
49
50
49
45
36
24
13
6
9
31
64
89
93
80
61
47
41
42
43
41
34
26
17
9
11
31
63
88
93
80
61
46
40
40
41
39
32
23
14
5
5
21
56
89
95
87
71
56
48
47
48
46
41
32
24
16
15
29
58
86
95
88
72
56
47
46
47
45
38
27
15
5
5
16
45
77
94
90
75
59
49
48
50
50
46
38
30
21
19
33
62
90
95
88
73
59
51
51
52
51
46
38
30
24
29
49
56
77
95
93
82
68
57
52
52
51
48
41
34
27
26
38
64
88
95
90
78
65
57
54
52
49
43
36
29
24
25
39
64
86
93
87
74
62
53
50
49
46
41
34
26
19
14
20
41
69
88
90
80
66
54
48
46
44
40
33
24
16
10
5
10
30
60
83
88
79
64
52
45
44
42
38
31
22
14
7
5
10
31
61
83
86
74
58
45
40
40
40
36
28
19
10
5
7
25
56
83
91
81
64
49
41
39
39
36
29
19
10
5
6
23
55
84
95
88
73
58
48
44
43
41
35
26
17
8
5
16
46
78
95
90
74
56
45
42
43
43
38
30
20
12
8
20
49
79
93
87
68
49
38
36
38
37
31
21
11
5
6
24
57
87
95
88
73
69
57
48
44
44
42
36
26
20
14
15
33
64
90
94
86
72
58
51
49
49
46
40
34
27
22
24
41
70
92
94
85
71
57
51
50
50
48
42
34
25
17
15
28
54
80
90
83
67
52
44
42
42
40
34
26
18
12
7
13
36
69
93
93
79
59
44
39
40
41
37
29
19
12
6
9
28
63
92
94
84
65
49
41
41
42
40
32
22
12
5
5
17
44
74
86
79
61
43
35
37
41
42
38
30
22
15
16
34
65
89
94
80
59
43
39
41
44
41
33
23
14
11
26
60
95
95
90
77
63
54
52
53
53
49
42
35
29
33
53
80
90
95
93
82
69
59
54
54
54
50
44
36
30
27
38
61
84
94
88
74
61
53
51
51
49
44
36
29
23
22
24
36
62
86
94
87
72
58
51
51
52
49
43
34
26
19
16
23
47
76
95
92
79
62
51
47
48
47
42
34
26
18
13
11
24
51
78
89
82
64
47
40
40
42
41
35
26
24
18
11
8
19
46
76
92
86
68
50
41
41
44
44
38
28
19
12
14
35
71
95
94
86
71
67
58
52
52
53
50
44
36
29
23
26
47
77
95
94
85
72
60
54
53
52
49
44
37
30
24
26
42
70
92
94
86
72
60
53
50
49
46
39
31
22
16
13
20
42
71
88
86
73
56
45
41
42
42
39
33
25
18
13
16
35
64
87
89
75
55
40
37
39
42
40
33
24
16
11
16
41
77
95
94
84
69
58
53
52
53
50
45
37
29
23
28
49
78
95
93
83
70
59
54
53
52
49
42
34
27
21
21
34
61
84
93
86
72
58
50
48
47
46
41
33
25
18
13
15
34
64
88
93
82
65
51
45
45
46
44
37
29
20
13
8
12
34
67
92
94
82
64
51
45
46
47
45
38
29
20
13
8
13
35
68
94
94
83
66
52
47
48
49
47
40
32
23
17
14
26
53
84
95
90
75
59
50
49
50
50
46
39
30
23
20
30
57
85
95
89
74
59
51
51
53
52
49
42
35
29
30
48
76
95
94
87
78
75
64
58
57
57
55
51
45
39
33
35
51
76
95
94
88
76
66
60
58
57
55
50
44
38
33
31
36
53
76
90
91
83
71
62
57
55
54
50
49
44
37
31
27
22
20
27
46
69
82
81
71
59
50
46
44
43
39
32
25
19
14
11
10
17
36
60
76
76
66
53
44
40
40
39
35
29
22
15
11
7
5
7
22
48
71
79
72
58
47
43
44
46
43
36
28
21
17
15
22
44
72
91
92
80
65
53
48
47
46
43
36
27
19
13
10
20
48
80
95
92
79
64
52
47
45
43
38
31
23
15
9
5
8
28
60
87
90
94
84
67
51
43
42
42
40
33
25
16
8
5
5
17
44
75
92
89
73
55
44
41
42
43
39
31
22
14
7
5
14
41
74
93
89
71
51
40
38
42
44
40
31
22
13
7
9
13
31
68
95
94
83
65
50
44
44
46
44
39
30
20
12
9
21
52
86
95
92
80
66
56
52
52
51
51
51
47
42
34
27
21
20
34
62
88
95
88
75
61
53
51
50
49
45
38
31
24
18
16
27
52
81
95
91
78
63
53
49
49
49
46
39
32
24
18
14
19
40
70
92
94
83
67
55
49
49
49
47
41
33
26
19
14
15
29
58
85
95
87
70
54
46
46
48
47
43
36
28
21
17
19
36
66
91
94
84
66
52
46
46
48
46
40
32
24
17
13
19
42
75
95
94
84
71
60
54
53
52
50
44
37
30
25
21
24
43
71
94
94
87
75
64
58
56
56
53
47
40
32
26
21
18
24
43
70
88
91
90
80
66
55
50
49
49
46
40
33
26
20
15
16
30
56
81
91
85
70
55
47
45
46
45
40
33
25
18
12
9
16
39
71
92
93
80
62
50
46
47
48
45
39
30
23
16
13
21
47
77
95
91
76
61
58
67
83
83
77
53
11
5
5
5
11
29
49
61
62
54
49
45
39
38
37
38
38
34
28
21
16
18
29
48
64
71
68
60
52
47
46
47
46
44
40
35
30
30
39
55
70
77
73
65
56
51
49
49
48
45
41
35
30
28
37
55
73
82
81
74
65
59
56
55
54
51
45
39
33
29
33
47
65
77
78
72
63
56
51
50
49
47
44
38
32
26
22
23
33
52
69
75
71
63
53
44
39
37
38
38
38
37
35
34
35
42
56
69
76
74
67
60
55
53
52
50
47
44
40
36
34
38
51
67
76
76
69
61
55
51
50
48
45
40
35
30
27
27
35
53
71
81
80
73
63
56
52
51
49
47
42
36
30
24
22
31
51
72
82
79
68
55
45
40
39
38
35
28
20
13
6
6
19
45
69
79
74
59
45
37
37
39
40
36
29
21
14
14
33
68
95
95
91
80
69
63
62
62
64
52
45
39
34
31
34
48
69
87
90
83
71
61
56
55
54
51
44
36
28
21
16
13
20
40
64
78
77
66
52
43
39
38
36
31
24
17
12
8
6
12
32
58
74
75
63
48
38
34
35
36
33
26
19
12
6
5
11
32
59
76
76
64
50
40
37
38
39
35
29
24
22
21
20
25
44
72
95
94
85
71
58
51
49
48
47
41
33
25
19
15
17
32
59
85
95
88
73
58
48
43
40
37
31
23
15
8
5
5
8
26
54
76
81
72
57
45
40
40
41
39
34
28
21
16
14
17
32
60
83
89
79
61
46
38
37
37
35
29
19
10
5
5
5
14
39
65
79
75
60
44
36
36
39
40
37
31
23
17
13
18
40
69
87
87
72
53
41
38
41
43
40
33
24
16
12
19
44
78
95
93
81
67
56
52
53
54
51
44
36
28
23
26
30
46
77
95
94
86
73
63
58
58
58
55
50
43
37
31
29
36
58
83
95
92
80
67
64
58
55
56
55
52
47
40
34
29
27
35
57
82
95
91
78
64
56
53
54
54
51
44
38
32
26
23
28
48
75
94
93
81
66
55
51
51
52
49
43
36
29
23
20
23
42
70
91
94
82
65
52
47
48
49
48
42
35
29
23
19
24
44
73
93
92
78
60
48
46
49
51
47
40
32
25
20
23
44
75
95
94
85
71
59
54
53
53
50
45
44
40
35
30
28
38
62
89
95
92
81
68
60
57
57
57
54
48
41
34
29
29
41
64
85
92
85
72
61
54
53
53
53
51
47
40
34
28
27
24
29
47
72
88
88
77
62
52
49
51
51
47
41
34
29
25
29
45
71
91
94
85
71
59
53
53
54
52
46
37
29
23
21
31
36
54
80
93
90
78
64
54
50
48
46
42
36
28
21
15
13
23
47
73
87
85
73
59
49
45
44
42
41
37
30
22
14
8
5
5
18
43
68
80
76
63
51
43
40
40
39
34
27
18
10
5
5
5
16
39
63
75
74
63
51
43
42
44
45
41
36
32
30
27
26
35
58
81
90
83
69
56
49
47
47
46
42
37
32
27
26
36
59
84
95
93
83
71
61
56
53
49
43
41
35
27
20
18
14
14
28
34
54
77
86
80
66
53
45
42
41
38
32
23
15
7
5
6
21
45
65
71
64
51
39
32
31
31
28
23
15
8
5
5
6
19
40
59
66
60
48
37
31
30
30
30
28
24
19
12
7
5
5
11
29
50
63
63
55
45
38
36
37
37
34
28
21
15
11
12
26
47
65
70
63
52
44
41
42
42
40
35
29
23
17
16
27
51
75
86
82
69
57
50
49
50
48
43
36
28
22
18
22
41
69
90
94
86
72
60
55
54
54
50
44
37
32
28
26
31
50
80
95
94
87
75
64
59
60
60
57
51
43
36
29
24
22
29
49
73
89
91
85
82
69
57
47
38
29
21
14
9
6
5
6
15
37
65
84
86
75
60
49
46
48
49
47
42
34
28
23
26
44
70
90
92
80
63
50
46
46
46
42
35
26
18
12
17
39
70
93
94
84
69
57
50
48
47
43
36
28
19
14
17
37
66
89
94
86
71
58
50
47
46
42
36
27
19
12
7
12
34
64
85
89
78
62
50
44
43
42
38
31
22
14
7
5
5
15
41
69
85
84
72
57
47
45
45
45
40
33
24
17
11
6
5
11
35
67
90
93
81
64
52
49
50
51
46
38
28
19
12
7
5
12
37
71
95
93
80
63
50
46
49
51
50
44
35
24
15
8
8
24
59
95
95
91
77
61
50
45
43
38
27
12
5
5
5
5
6
17
35
51
56
49
38
29
25
27
29
29
26
21
18
15
14
18
31
49
64
68
64
56
49
47
48
48
47
43
38
33
30
28
32
45
63
77
80
75
66
59
56
56
56
53
48
41
36
32
29
32
45
63
77
80
79
73
63
55
53
54
54
51
45
39
33
28
25
30
46
65
76
74
64
53
46
44
45
44
41
35
28
23
19
20
34
56
74
79
72
60
51
48
49
50
47
41
34
28
23
22
33
55
76
86
82
70
59
53
52
54
54
55
56
58
61
71
93
95
95
95
95
93
91
88
86
83
78
70
60
47
23
5
1
1
1
1
1
1
1
1
1
1
1
1
55
53
52
52
51
49
46
42
38
35
34
37
47
60
68
68
63
57
53
51
52
51
48
45
40
37
34
35
44
58
69
74
72
66
61
57
55
53
51
47
42
37
33
32
38
53
69
78
78
72
65
59
56
54
52
49
44
39
33
29
30
41
58
72
77
73
65
58
53
51
50
49
46
42
36
30
25
21
24
37
56
70
74
69
61
53
49
47
46
43
38
32
26
21
17
19
33
53
70
75
70
60
51
47
47
48
47
43
38
32
27
26
36
56
77
87
85
76
65
58
56
55
54
49
42
34
28
23
27
45
69
88
94
89
79
68
61
58
55
51
45
37
30
23
20
28
50
77
94
94
85
74
65
60
58
55
50
42
36
34
27
25
20
19
31
56
81
94
91
78
65
56
53
52
49
43
35
26
18
13
15
32
62
87
94
86
70
55
48
46
45
41
33
23
13
5
5
13
37
64
80
78
75
64
48
37
35
35
34
29
20
11
5
5
12
34
58
71
69
56
43
35
34
35
34
29
23
16
10
11
26
49
66
70
62
49
39
35
36
36
32
26
19
13
11
23
46
68
78
75
65
54
48
45
45
42
38
31
23
17
19
34
58
77
83
77
67
57
51
49
48
44
38
30
22
15
12
21
44
70
85
85
78
71
67
66
65
63
56
47
38
29
22
19
26
48
75
94
94
87
77
68
63
62
60
54
46
38
30
23
18
14
13
25
51
80
95
94
87
78
72
70
68
66
60
52
45
39
34
28
23
17
19
37
65
88
95
90
79
69
64
62
60
54
45
33
20
18
10
5
5
5
12
32
54
67
67
58
47
39
36
36
34
30
24
17
10
5
5
11
30
55
73
74
64
50
40
38
39
38
35
28
20
12
7
9
28
57
82
92
87
75
63
55
52
51
48
41
32
22
14
11
23
52
83
95
93
83
71
61
55
52
49
44
36
28
19
13
15
32
61
85
94
88
74
62
54
52
50
47
40
30
21
13
7
8
24
55
85
95
90
77
63
56
53
52
49
42
33
25
17
11
14
33
65
91
94
87
73
61
55
54
54
51
49
44
35
27
21
21
37
68
95
95
90
79
68
62
62
62
59
52
43
35
29
26
32
53
79
95
94
88
79
71
66
63
61
56
50
42
35
29
27
35
56
81
95
95
93
85
75
66
62
60
57
52
45
37
30
24
20
21
34
59
81
90
86
75
64
57
54
53
49
43
37
35
27
20
15
11
11
23
47
72
85
84
75
69
74
88
95
95
92
84
71
53
31
13
6
14
35
58
63
74
80
76
65
54
52
54
52
44
37
33
31
30
29
37
54
73
83
81
73
63
57
55
55
54
50
46
41
36
33
35
47
66
82
88
83
74
65
60
58
57
55
51
45
39
34
31
34
48
68
82
85
80
71
63
58
56
54
53
51
46
40
34
28
24
27
41
60
75
78
73
64
55
51
49
48
45
40
34
28
22
18
21
33
52
67
70
65
56
48
45
44
44
42
39
33
28
22
17
16
25
45
64
72
69
60
51
46
45
45
44
39
34
27
21
17
17
30
51
69
75
69
58
49
45
45
45
45
42
37
30
23
17
13
18
37
62
80
85
78
67
58
53
52
50
47
40
32
24
16
14
23
48
75
90
90
80
67
58
54
53
50
45
37
28
20
12
8
16
38
65
81
82
72
58
48
43
41
39
34
26
16
7
5
5
11
30
54
70
72
62
49
39
35
35
36
36
34
31
26
20
19
32
57
79
87
79
64
50
42
40
41
40
36
31
26
22
21
29
50
78
94
90
71
48
32
25
23
17
6
5
5
5
5
6
17
34
49
56
55
51
47
44
44
44
43
41
38
36
39
51
69
83
85
75
58
41
28
20
15
10
6
5
5
6
9
18
35
53
68
74
73
70
66
64
62
62
63
64
61
55
49
46
50
59
70
78
82
81
78
75
72
68
64
60
57
54
50
46
41
37
35
35
34
30
27
27
31
37
40
35
24
11
5
5
5
5
5
5
5
5
5
5
5
5
5
5
5
5
5
5
10
22
33
38
38
34
29
26
25
27
29
30
29
28
26
28
35
44
50
51
48
44
40
38
37
38
41
44
49
53
56
58
58
57
57
56
56
56
56
55
54
52
51
49
48
46
44
43
44
45
46
44
40
34
27
19
13
9
5
5
6
16
34
50
56
55
48
41
35
31
31
32
31
28
25
23
20
24
35
47
52
47
36
24
15
11
11
12
12
11
9
11
22
40
57
63
55
41
28
22
21
22
22
20
18
18
25
43
64
76
76
65
50
37
30
27
26
25
23
21
24
38
61
80
86
80
67
53
42
35
32
30
27
24
23
32
54
76
87
84
72
58
47
42
42
44
43
39
31
25
32
53
74
83
79
68
56
46
38
33
29
25
21
25
43
66
83
87
81
71
63
58
56
55
55
53
50
49
56
68
79
83
80
72
65
62
62
66
69
70
68
66
66
72
81
90
92
88
80
72
67
65
64
62
59
55
55
64
78
89
93
89
81
73
68
64
63
61
58
55
51
52
63
78
90
93
88
79
71
66
63
62
60
57
52
48
50
62
80
94
95
95
94
90
82
74
68
64
62
60
57
52
48
47
57
74
89
95
92
84
74
67
63
61
60
57
53
48
44
45
56
75
91
95
91
83
73
65
61
58
56
53
49
43
38
36
44
63
81
90
88
79
67
59
55
53
52
50
45
40
34
34
46
66
83
90
85
74
62
53
49
47
45
41
35
27
23
29
50
74
89
91
82
70
57
49
44
41
37
31
23
15
15
30
58
82
92
88
76
62
50
42
38
35
33
29
22
13
5
5
16
42
70
84
83
72
57
45
38
35
32
29
23
15
6
5
14
38
65
81
82
72
58
47
40
38
36
33
27
19
11
9
23
50
76
87
84
72
57
46
39
36
33
29
22
13
5
6
21
50
77
90
87
74
59
46
39
35
32
27
20
10
5
5
12
34
62
79
81
72
58
45
38
36
35
33
28
20
11
8
20
47
74
87
84
70
55
45
40
39
38
33
26
17
12
22
48
79
95
93
84
71
59
52
49
47
44
38
31
23
26
44
73
95
95
90
79
67
58
53
50
48
43
36
28
22
26
33
45
72
91
94
87
75
63
56
53
52
50
46
41
36
32
38
56
80
95
94
86
73
61
53
50
49
47
42
35
27
23
32
56
82
95
93
84
72
61
55
52
50
47
42
35
27
22
29
52
79
95
94
86
73
62
54
51
49
46
40
32
24
17
17
32
59
82
91
86
73
59
49
45
44
42
37
30
20
11
5
9
31
62
85
91
83
67
52
43
40
40
38
32
24
14
5
5
17
45
73
87
84
70
55
46
47
50
51
45
35
24
14
12
29
60
88
95
91
80
68
57
49
48
44
42
42
38
26
7
5
9
33
65
86
90
84
75
68
62
55
45
30
16
5
5
5
5
8
15
24
28
27
21
13
8
12
27
47
63
69
64
53
40
30
33
49
70
86
93
92
86
76
62
44
24
9
5
5
7
14
30
53
71
79
76
65
50
33
16
5
5
6
12
15
18
25
40
63
83
91
89
80
71
65
62
62
60
58
54
49
45
42
47
60
74
83
83
76
68
62
60
60
59
57
54
49
45
41
42
53
67
78
80
75
67
61
58
57
57
55
52
47
43
40
40
49
63
76
81
77
70
63
59
58
58
57
54
50
47
44
46
56
71
84
88
84
76
69
66
64
64
62
59
55
50
49
56
71
87
95
94
89
82
75
71
69
68
65
61
57
53
52
59
74
89
95
94
88
80
74
69
67
65
62
58
53
49
45
44
52
66
81
89
90
89
82
73
67
63
62
62
60
60
57
54
49
46
50
62
78
90
92
87
78
70
64
61
59
57
54
50
46
43
44
45
55
73
89
95
93
86
77
70
65
62
60
56
51
46
40
35
31
31
41
60
78
87
86
77
67
59
54
51
48
45
39
33
27
22
18
14
13
20
40
63
80
84
77
66
55
49
46
44
42
37
31
25
19
14
12
10
8
12
30
56
77
85
79
66
54
45
42
41
39
35
28
22
16
11
8
15
35
62
82
87
80
65
52
44
41
40
37
32
25
17
10
5
8
26
57
84
95
91
79
65
54
48
45
43
38
32
24
16
5
8
26
57
86
95
91
80
66
56
50
47
45
41
34
27
20
14
9
8
18
43
73
94
95
94
86
73
62
56
54
53
49
43
35
27
20
15
16
32
59
86
95
92
81
68
57
52
49
48
44
38
32
25
19
14
14
27
54
81
95
93
82
68
57
51
49
47
44
39
32
25
19
15
17
34
61
85
94
89
75
60
51
48
48
47
43
38
32
25
21
24
42
71
95
95
89
76
63
54
50
49
47
43
37
31
25
22
27
45
72
95
95
91
80
68
59
53
50
47
44
40
34
29
26
31
48
71
87
90
83
71
59
51
47
46
44
40
34
28
22
22
33
57
81
93
91
80
67
55
48
45
43
41
36
29
21
14
11
22
48
78
95
94
86
72
59
51
47
44
42
37
32
25
19
12
8
15
37
65
87
93
86
83
73
59
49
45
43
41
37
31
26
20
15
14
27
52
78
92
91
81
66
54
45
41
38
34
27
18
11
5
5
5
8
26
55
82
95
92
82
68
57
51
48
45
41
34
26
21
16
15
27
51
77
91
90
80
66
55
47
42
38
34
28
20
12
5
5
5
11
33
64
87
94
85
69
55
47
45
46
48
51
54
57
56
56
66
85
95
94
88
76
63
52
46
44
42
39
33
24
16
10
14
35
65
88
95
88
74
60
50
45
43
41
38
33
25
16
9
13
33
62
84
91
84
70
56
45
41
39
37
34
28
23
18
17
29
53
77
89
85
73
59
49
43
41
38
34
28
21
14
10
17
41
71
92
94
87
74
61
59
52
48
46
43
39
37
32
24
17
13
22
48
56
78
95
93
84
71
59
52
49
47
45
40
33
25
20
26
48
75
93
94
84
69
56
48
45
44
42
37
31
24
22
35
62
88
95
95
90
76
61
50
45
43
42
37
31
23
16
18
37
67
93
95
77
64
54
49
47
44
40
33
25
18
13
22
39
47
76
94
93
82
67
54
46
45
44
43
40
36
29
23
21
27
36
48
75
94
94
86
72
60
54
51
49
45
38
29
20
13
12
13
31
63
93
95
91
80
66
56
51
49
48
45
40
33
32
27
20
19
32
37
56
78
88
83
71
57
47
42
40
39
35
29
21
14
8
5
12
34
63
82
85
75
60
47
40
38
37
35
30
23
16
9
5
11
34
62
82
84
73
56
43
36
36
37
35
31
24
16
10
8
21
50
80
95
92
80
65
54
48
45
44
40
34
26
18
11
6
12
35
68
93
94
86
72
59
51
49
49
48
45
39
32
25
22
31
55
83
95
93
83
69
58
53
51
51
49
45
40
35
29
28
41
65
89
95
92
83
73
64
58
55
54
51
46
39
33
28
28
40
62
84
95
92
83
71
62
57
56
55
53
49
44
37
30
24
21
29
51
76
93
94
85
72
60
54
52
51
48
43
35
28
21
17
23
42
69
88
92
83
70
58
50
47
47
46
42
35
27
20
14
18
37
64
86
89
93
87
74
61
52
47
46
45
43
39
33
26
19
18
31
56
82
95
92
81
66
55
49
47
45
41
36
30
24
17
10
10
25
55
84
95
93
85
73
62
55
51
51
49
46
41
35
29
23
16
10
9
23
51
80
95
94
85
73
67
61
53
50
47
45
40
34
28
21
14
8
5
7
24
53
81
95
91
80
66
56
51
50
50
48
45
40
33
26
20
16
18
34
63
88
95
89
75
60
50
46
45
44
41
36
29
21
14
9
13
33
65
92
95
91
79
66
56
50
47
45
42
38
32
26
19
12
12
27
55
83
95
92
80
67
56
50
48
46
44
40
34
29
23
22
34
58
82
95
92
81
67
56
49
47
45
42
36
29
23
19
20
32
58
87
95
94
86
76
67
60
56
53
50
45
40
34
29
26
33
52
76
93
94
88
78
67
60
57
54
50
45
39
33
27
22
22
31
52
75
89
90
82
70
60
54
53
51
49
46
40
33
27
25
21
16
14
22
42
68
86
91
84
72
60
53
50
49
46
40
33
26
19
13
9
11
27
54
80
93
91
79
65
54
49
48
46
42
35
27
20
13
8
6
12
33
63
87
95
88
75
60
51
47
46
44
39
31
23
15
9
5
6
19
47
76
93
92
79
63
51
47
48
48
45
39
31
24
17
18
33
63
91
95
90
77
63
53
48
46
44
41
35
28
22
17
20
39
70
95
95
92
82
70
61
57
56
54
52
48
47
43
38
37
46
65
83
93
92
84
74
64
57
53
52
49
44
39
34
31
37
54
74
88
91
84
74
64
57
53
50
46
42
37
31
26
21
20
31
52
75
88
88
79
67
56
49
46
43
40
34
27
21
16
11
10
17
36
61
78
82
75
63
52
44
40
38
34
29
22
16
11
6
5
5
12
31
56
72
75
70
67
55
46
43
44
43
40
34
28
22
18
15
19
36
61
82
89
83
71
58
49
44
42
39
35
28
21
15
9
9
21
48
75
90
90
79
65
52
44
41
38
35
28
21
19
13
5
5
6
22
48
73
84
81
69
55
45
40
39
37
32
25
18
10
5
5
6
19
43
65
74
71
60
48
39
35
34
33
29
23
17
11
5
5
5
12
32
55
69
70
61
48
46
39
34
33
33
31
27
22
16
11
7
5
9
27
52
58
71
76
69
57
46
41
40
40
40
36
31
25
19
14
13
22
44
69
85
87
78
66
55
50
51
52
51
47
41
35
33
28
25
33
37
54
78
92
91
80
66
56
53
52
52
51
47
40
33
27
23
24
41
69
95
95
90
79
67
60
59
57
54
52
48
44
40
35
35
46
66
84
90
85
74
63
56
51
48
45
41
34
28
21
18
25
45
67
79
80
71
58
48
42
40
38
34
29
22
16
11
13
28
50
67
71
65
53
42
35
31
30
27
23
17
10
5
5
7
20
42
61
68
63
51
40
32
30
29
28
24
18
13
7
6
14
35
57
70
71
63
52
43
37
35
33
30
26
20
13
8
5
7
23
49
71
82
80
72
61
52
47
44
41
37
30
23
15
9
5
5
14
37
63
81
86
80
69
59
53
49
47
44
38
31
23
16
10
5
5
12
35
64
86
92
85
72
60
52
49
48
48
47
44
38
30
21
16
24
50
81
95
94
87
76
65
57
53
50
45
39
31
23
16
11
15
34
62
85
95
91
80
67
56
48
44
41
35
27
18
10
5
5
14
39
68
88
92
84
71
57
48
42
38
33
27
20
11
5
5
5
14
37
63
79
80
71
57
45
38
36
34
31
25
19
12
7
7
20
44
68
80
77
64
51
42
37
35
32
27
21
15
9
8
22
50
79
94
92
81
66
54
46
42
38
34
27
25
20
12
7
7
14
40
73
95
94
87
73
60
51
45
43
41
37
31
25
17
16
11
6
10
30
60
85
93
86
72
58
49
45
43
39
34
26
18
11
5
5
12
37
68
90
94
83
67
53
45
41
39
36
30
23
16
9
5
5
17
44
73
90
89
76
59
46
40
38
36
32
26
19
12
6
5
14
40
72
91
92
79
70
60
46
39
37
36
32
26
19
12
6
5
5
8
27
50
59
89
95
89
74
60
50
47
46
44
39
33
27
21